Freq[Hz]     dBSPL  Phase[Deg]
5.00000     67.151   -18.272
5.07273     67.139   -18.274
5.14651     67.122   -18.276
5.22137     67.098   -18.281
5.29732     67.074   -18.287
5.37437     67.049   -18.294
5.45254     67.025   -18.301
5.53185     67.000   -18.309
5.61231     66.975   -18.317
5.69394     66.951   -18.326
5.77676     66.926   -18.334
5.86079     66.901   -18.343
5.94604     66.877   -18.352
6.03252     66.852   -18.361
6.12027     66.827   -18.370
6.20929     66.802   -18.379
6.29961     66.778   -18.388
6.39124     66.753   -18.398
6.48420     66.728   -18.408
6.57851     66.704   -18.418
6.67420     66.679   -18.428
6.77128     66.654   -18.438
6.86977     66.629   -18.448
6.96969     66.605   -18.459
7.07107     66.580   -18.470
7.17392     66.555   -18.481
7.27827     66.531   -18.492
7.38413     66.506   -18.503
7.49154     66.481   -18.515
7.60050     66.457   -18.526
7.71105     66.432   -18.538
7.82321     66.407   -18.551
7.93701     66.382   -18.563
8.05245     66.358   -18.575
8.16958     66.333   -18.588
8.28841     66.308   -18.601
8.40896     66.284   -18.614
8.53128     66.259   -18.627
8.65537     66.234   -18.641
8.78126     66.210   -18.655
8.90899     66.185   -18.669
9.03857     66.160   -18.683
9.17004     66.135   -18.698
9.30342     66.111   -18.712
9.43874     66.086   -18.727
9.57603     66.061   -18.743
9.71532     66.037   -18.758
9.85663     66.012   -18.774
10.0000     65.987   -18.790
10.1455     65.962   -18.806
10.2930     65.938   -18.823
10.4427     65.913   -18.840
10.5946     65.888   -18.857
10.7487     65.864   -18.874
10.9051     65.839   -18.892
11.0637     65.814   -18.910
11.2246     65.790   -18.928
11.3879     65.765   -18.947
11.5535     65.740   -18.966
11.7216     65.715   -18.986
11.8921     65.691   -19.005
12.0650     65.666   -19.025
12.2405     65.641   -19.046
12.4186     65.617   -19.067
12.5992     65.592   -19.088
12.7825     65.567   -19.109
12.9684     65.543   -19.131
13.1570     65.518   -19.154
13.3484     65.493   -19.176
13.5426     65.468   -19.200
13.7395     65.444   -19.223
13.9394     65.419   -19.247
14.1421     65.394   -19.272
14.3478     65.370   -19.297
14.5565     65.345   -19.323
14.7683     65.320   -19.349
14.9831     65.295   -19.376
15.2010     65.271   -19.403
15.4221     65.246   -19.431
15.6464     65.221   -19.460
15.8740     65.197   -19.489
16.1049     65.172   -19.520
16.3392     65.147   -19.550
16.5768     65.123   -19.582
16.8179     65.098   -19.614
17.0626     65.073   -19.647
17.3107     65.048   -19.681
17.5625     65.024   -19.716
17.8180     64.999   -19.752
18.0771     64.974   -19.789
18.3401     64.950   -19.828
18.6068     64.925   -19.868
18.8775     64.900   -19.910
19.1521     64.876   -19.956
19.4306     64.851   -20.004
19.7133     64.825   -20.054
20.0000     64.797   -20.099
20.2909     64.767   -20.135
20.5860     64.741   -20.171
20.8855     64.716   -20.209
21.1893     64.692   -20.243
21.4975     64.668   -20.285
21.8102     64.639   -20.326
22.1274     64.615   -20.369
22.4492     64.592   -20.419
22.7758     64.568   -20.469
23.1071     64.545   -20.526
23.4432     64.515   -20.584
23.7841     64.490   -20.642
24.1301     64.465   -20.704
24.4811     64.441   -20.769
24.8372     64.417   -20.842
25.1984     64.388   -20.921
25.5649     64.360   -20.997
25.9368     64.329   -21.071
26.3141     64.299   -21.140
26.6968     64.268   -21.206
27.0851     64.238   -21.269
27.4791     64.206   -21.330
27.8788     64.176   -21.388
28.2843     64.145   -21.445
28.6957     64.115   -21.500
29.1131     64.084   -21.554
29.5365     64.055   -21.609
29.9661     64.025   -21.665
30.4020     63.996   -21.724
30.8442     63.966   -21.787
31.2929     63.938   -21.855
31.7480     63.908   -21.927
32.2098     63.876   -21.999
32.6783     63.842   -22.067
33.1536     63.809   -22.132
33.6359     63.775   -22.192
34.1251     63.745   -22.250
34.6215     63.713   -22.312
35.1250     63.683   -22.378
35.6359     63.652   -22.451
36.1543     63.621   -22.530
36.6802     63.586   -22.609
37.2137     63.552   -22.686
37.7550     63.514   -22.756
38.3041     63.475   -22.817
38.8613     63.441   -22.874
39.4265     63.406   -22.930
40.0000     63.374   -22.991
40.5818     63.339   -23.057
41.1721     63.304   -23.122
41.7710     63.266   -23.184
42.3785     63.227   -23.240
42.9949     63.193   -23.296
43.6203     63.159   -23.356
44.2548     63.127   -23.423
44.8985     63.089   -23.493
45.5515     63.051   -23.559
46.2141     63.013   -23.627
46.8863     62.974   -23.692
47.5683     62.942   -23.761
48.2602     62.904   -23.836
48.9621     62.863   -23.907
49.6743     62.822   -23.977
50.3968     62.777   -24.038
51.1299     62.738   -24.089
51.8736     62.701   -24.147
52.6281     62.659   -24.205
53.3936     62.620   -24.262
54.1702     62.580   -24.328
54.9581     62.535   -24.390
55.7575     62.494   -24.444
56.5685     62.452   -24.503
57.3914     62.407   -24.558
58.2261     62.363   -24.606
59.0730     62.321   -24.656
59.9323     62.278   -24.709
60.8040     62.232   -24.757
61.6884     62.188   -24.802
62.5857     62.143   -24.848
63.4960     62.097   -24.892
64.4196     62.051   -24.929
65.3566     62.006   -24.968
66.3073     61.961   -25.014
67.2717     61.915   -25.059
68.2502     61.869   -25.099
69.2429     61.817   -25.134
70.2501     61.766   -25.162
71.2719     61.719   -25.189
72.3086     61.672   -25.214
73.3603     61.625   -25.236
74.4274     61.572   -25.257
75.5099     61.519   -25.272
76.6083     61.472   -25.288
77.7226     61.425   -25.306
78.8531     61.379   -25.326
80.0000     61.325   -25.348
81.1636     61.266   -25.357
82.3442     61.211   -25.351
83.5419     61.162   -25.344
84.7570     61.115   -25.343
85.9899     61.067   -25.355
87.2406     61.014   -25.374
88.5096     60.956   -25.390
89.7970     60.894   -25.390
91.1031     60.833   -25.370
92.4282     60.773   -25.332
93.7726     60.717   -25.289
95.1366     60.663   -25.247
96.5204     60.610   -25.208
97.9243     60.556   -25.176
99.3486     60.498   -25.148
100.794     60.441   -25.120
102.260     60.381   -25.090
103.747     60.322   -25.058
105.256     60.257   -25.019
106.787     60.192   -24.966
108.340     60.126   -24.903
109.916     60.055   -24.821
111.515     59.990   -24.720
113.137     59.924   -24.615
114.783     59.856   -24.496
116.452     59.791   -24.368
118.146     59.726   -24.240
119.865     59.662   -24.111
121.608     59.597   -23.982
123.377     59.528   -23.846
125.171     59.454   -23.691
126.992     59.378   -23.514
128.839     59.303   -23.315
130.713     59.233   -23.097
132.615     59.161   -22.864
134.543     59.085   -22.608
136.500     59.009   -22.326
138.486     58.930   -22.009
140.500     58.854   -21.648
142.544     58.785   -21.252
144.617     58.721   -20.836
146.721     58.662   -20.404
148.855     58.608   -19.955
151.020     58.559   -19.502
153.217     58.515   -19.052
155.445     58.476   -18.604
157.706     58.445   -18.169
160.000     58.413   -17.751
162.327     58.383   -17.345
164.688     58.351   -16.944
167.084     58.321   -16.544
169.514     58.291   -16.140
171.980     58.267   -15.737
174.481     58.244   -15.338
177.019     58.222   -14.940
179.594     58.205   -14.553
182.206     58.189   -14.184
184.856     58.174   -13.822
187.545     58.159   -13.468
190.273     58.143   -13.123
193.041     58.128   -12.786
195.849     58.113   -12.446
198.697     58.097   -12.099
201.587     58.082   -11.751
204.520     58.067   -11.404
207.494     58.060   -11.060
210.512     58.058   -10.735
213.574     58.053   -10.429
216.681     58.042   -10.128
219.833     58.027    -9.820
223.030     58.012    -9.498
226.274     58.002    -9.163
229.565     57.998    -8.824
232.905     57.997    -8.494
236.292     57.997    -8.179
239.729     57.997    -7.877
243.216     57.997    -7.586
246.754     57.997    -7.302
250.343     57.997    -7.025
253.984     57.997    -6.753
257.678     57.997    -6.486
261.426     57.997    -6.223
265.229     57.997    -5.963
269.087     57.997    -5.707
273.001     57.997    -5.452
276.972     57.997    -5.201
281.000     57.997    -4.951
285.088     57.997    -4.702
289.234     57.997    -4.454
293.441     57.997    -4.208
297.709     57.997    -3.961
302.040     57.997    -3.714
306.433     57.997    -3.465
310.890     57.997    -3.215
315.412     57.997    -2.960
320.000     57.997    -2.698
324.655     57.997    -2.427
329.377     57.998    -2.148
334.168     58.006    -1.870
339.028     58.020    -1.612
343.959     58.035    -1.376
348.962     58.050    -1.161
354.038     58.057    -0.962
359.188     58.058    -0.757
364.412     58.059    -0.534
369.713     58.060    -0.293
375.090     58.067    -0.044
380.546     58.082     0.192
386.081     58.097     0.412
391.697     58.111     0.616
397.394     58.119     0.812
403.175     58.121     1.018
409.039     58.125     1.238
414.989     58.136     1.462
421.025     58.151     1.677
427.149     58.165     1.884
433.362     58.177     2.083
439.665     58.182     2.284
446.060     58.191     2.492
452.548     58.205     2.696
459.131     58.220     2.896
465.809     58.235     3.091
472.584     58.243     3.283
479.458     58.252     3.478
486.432     58.267     3.670
493.507     58.282     3.861
500.686     58.297     4.051
507.968     58.306     4.238
515.357     58.316     4.430
522.853     58.330     4.623
530.458     58.345     4.817
538.174     58.360     5.011
546.002     58.374     5.198
553.943     58.390     5.380
562.001     58.405     5.563
570.175     58.421     5.750
578.469     58.436     5.932
586.883     58.452     6.110
595.419     58.467     6.292
604.080     58.486     6.473
612.866     58.504     6.646
621.780     58.520     6.816
630.824     58.536     6.989
640.000     58.555     7.158
649.309     58.574     7.319
658.753     58.590     7.480
668.335     58.606     7.648
678.056     58.621     7.818
687.919     58.637     7.990
697.925     58.653     8.168
708.077     58.675     8.346
718.376     58.697     8.509
728.825     58.714     8.669
739.426     58.734     8.829
750.181     58.753     8.982
761.093     58.770     9.138
772.163     58.786     9.304
783.394     58.803     9.475
794.789     58.821     9.645
806.349     58.838     9.822
818.078     58.860    10.001
829.977     58.882    10.171
842.050     58.899    10.342
854.298     58.922    10.516
866.724     58.944    10.683
879.330     58.961    10.855
892.120     58.983    11.033
905.097     59.006    11.205
918.262     59.025    11.381
931.618     59.049    11.560
945.169     59.072    11.732
958.917     59.093    11.908
972.864     59.118    12.083
987.015     59.139    12.255
1001.37     59.162    12.432
1015.94     59.187    12.605
1030.71     59.206    12.782
1045.71     59.229    12.968
1060.92     59.252    13.151
1076.35     59.270    13.347
1092.00     59.294    13.552
1107.89     59.317    13.756
1124.00     59.341    13.964
1140.35     59.369    14.169
1156.94     59.391    14.376
1173.77     59.415    14.592
1190.84     59.438    14.810
1208.16     59.459    15.039
1225.73     59.487    15.276
1243.56     59.510    15.514
1261.65     59.533    15.763
1280.00     59.558    16.018
1298.62     59.577    16.293
1317.51     59.600    16.590
1336.67     59.623    16.898
1356.11     59.646    17.224
1375.84     59.676    17.562
1395.85     59.700    17.914
1416.15     59.725    18.291
1436.75     59.748    18.690
1457.65     59.772    19.125
1478.85     59.801    19.596
1500.36     59.825    20.110
1522.19     59.852    20.684
1544.33     59.878    21.330
1566.79     59.910    22.061
1589.58     59.960    22.867
1612.70     60.028    23.722
1636.16     60.119    24.598
1659.95     60.231    25.461
1684.10     60.360    26.289
1708.60     60.500    27.074
1733.45     60.650    27.816
1758.66     60.811    28.513
1784.24     60.985    29.162
1810.19     61.167    29.762
1836.52     61.356    30.318
1863.24     61.559    30.814
1890.34     61.772    31.237
1917.83     61.993    31.595
1945.73     62.222    31.881
1974.03     62.453    32.090
2002.74     62.689    32.229
2031.87     62.933    32.297
2061.43     63.182    32.294
2091.41     63.438    32.207
2121.83     63.696    32.030
2152.69     63.958    31.770
2184.01     64.219    31.435
2215.77     64.480    31.025
2248.00     64.742    30.544
2280.70     65.009    29.993
2313.87     65.286    29.357
2347.53     65.570    28.610
2381.68     65.859    27.739
2416.32     66.153    26.723
2451.46     66.450    25.537
2487.12     66.741    24.172
2523.30     67.027    22.621
2560.00     67.295    20.886
2597.24     67.533    19.006
2635.01     67.735    17.029
2673.34     67.902    15.000
2712.23     68.040    12.957
2751.68     68.160    10.928
2791.70     68.267     8.916
2832.31     68.366     6.904
2873.50     68.450     4.885
2915.30     68.525     2.854
2957.70     68.583     0.806
3000.72     68.621    -1.249
3044.37     68.644    -3.297
3088.65     68.646    -5.326
3133.58     68.626    -7.308
3179.16     68.589    -9.230
3225.40     68.536   -11.078
3272.31     68.475   -12.846
3319.91     68.408   -14.531
3368.20     68.333   -16.136
3417.19     68.257   -17.670
3466.89     68.179   -19.146
3517.32     68.104   -20.571
3568.48     68.028   -21.951
3620.39     67.948   -23.294
3673.05     67.863   -24.596
3726.47     67.776   -25.854
3780.67     67.690   -27.065
3835.67     67.603   -28.233
3891.46     67.520   -29.368
3948.06     67.440   -30.483
4005.49     67.361   -31.580
4063.75     67.281   -32.657
4122.86     67.201   -33.723
4182.82     67.115   -34.769
4243.66     67.030   -35.785
4305.39     66.947   -36.776
4368.01     66.861   -37.741
4431.55     66.779   -38.682
4496.01     66.701   -39.613
4561.40     66.625   -40.534
4627.75     66.550   -41.446
4695.06     66.473   -42.353
4763.35     66.396   -43.254
4832.64     66.321   -44.146
4902.93     66.246   -45.023
4974.24     66.169   -45.884
5046.60     66.092   -46.732
5120.00     66.017   -47.566
5194.47     65.949   -48.391
5270.03     65.886   -49.220
5346.68     65.823   -50.054
5424.45     65.758   -50.892
5503.35     65.695   -51.735
5583.40     65.632   -52.578
5664.61     65.573   -53.423
5747.01     65.513   -54.272
5830.60     65.454   -55.120
5915.41     65.394   -55.965
6001.45     65.334   -56.805
6088.74     65.281   -57.644
6177.30     65.234   -58.494
6267.15     65.188   -59.355
6358.31     65.148   -60.234
6450.80     65.109   -61.142
6544.62     65.070   -62.073
6639.82     65.039   -63.030
6736.40     65.008   -64.019
6834.38     64.978   -65.035
6933.79     64.947   -66.082
7034.64     64.925   -67.168
7136.96     64.909   -68.316
7240.77     64.901   -69.545
7346.09     64.898   -70.879
7452.94     64.889   -72.328
7561.35     64.866   -73.875
7671.33     64.827   -75.503
7782.91     64.768   -77.186
7896.12     64.691   -78.896
8010.97     64.604   -80.620
8127.49     64.503   -82.352
8245.71     64.389   -84.077
8365.65     64.262   -85.793
8487.33     64.122   -87.491
8610.78     63.974   -89.169
8736.03     63.816   -90.820
8863.09     63.650   -92.439
8992.01     63.477   -94.030
9122.80     63.291   -95.581
9255.50     63.102   -97.092
9390.12     62.913   -98.574
9526.70     62.717  -100.025
9665.27     62.520  -101.446
9805.86     62.316  -102.845
9948.49     62.105  -104.214
10093.2     61.893  -105.554
10240.0     61.681  -106.871
10388.9     61.467  -108.171
10540.1     61.249  -109.455
10693.4     61.022  -110.713
10848.9     60.794  -111.953
11006.7     60.560  -113.169
11166.8     60.325  -114.353
11329.2     60.089  -115.515
11494.0     59.841  -116.646
11661.2     59.593  -117.739
11830.8     59.342  -118.801
12002.9     59.090  -119.831
12177.5     58.844  -120.839
12354.6     58.591  -121.831
12534.3     58.334  -122.797
12716.6     58.070  -123.729
12901.6     57.799  -124.613
13089.2     57.526  -125.438
13279.6     57.257  -126.214
13472.8     56.995  -126.956
13668.8     56.736  -127.672
13867.6     56.478  -128.365
14069.3     56.214  -129.033
14273.9     55.948  -129.665
14481.5     55.685  -130.260
14692.2     55.427  -130.822
14905.9     55.174  -131.357
15122.7     54.926  -131.883
15342.7     54.675  -132.392
15565.8     54.427  -132.881
15792.2     54.179  -133.353
16021.9     53.932  -133.801
16255.0     53.693  -134.231
16491.4     53.455  -134.647
16731.3     53.217  -135.042
16974.7     52.985  -135.425
17221.6     52.757  -135.802
17472.1     52.537  -136.175
17726.2     52.323  -136.557
17984.0     52.110  -136.950
18245.6     51.898  -137.349
18511.0     51.687  -137.750
18780.2     51.483  -138.163
19053.4     51.292  -138.617
19330.5     51.114  -139.142
19611.7     50.938  -139.754
19897.0     50.748  -140.443
20186.4     50.537  -141.177
20480.0     50.304  -141.912
20777.9     50.061  -142.611
21080.1     49.815  -143.261
21386.7     49.569  -143.867
21697.8     49.323  -144.440
22013.4     49.077  -144.988
22333.6     48.831  -145.517
22658.4     48.585  -146.028
22988.0     48.339  -146.525
23322.4     48.093  -147.009
23661.6     47.847  -147.480
24005.8     47.601  -147.941
24355.0     47.355  -148.391
24709.2     47.109  -148.831
25068.6     46.863  -149.262
25433.2     46.617  -149.685
25803.2     46.371  -150.099
26178.5     46.125  -150.505
26559.3     45.879  -150.903
26945.6     45.633  -151.294
27337.5     45.387  -151.678
27735.2     45.141  -152.056
28138.6     44.895  -152.427
28547.9     44.649  -152.791
28963.1     44.403  -153.149
29384.4     44.157  -153.501
29811.8     43.911  -153.848
30245.4     43.665  -154.188
30685.3     43.419  -154.523
31131.7     43.173  -154.853
31584.5     42.926  -155.178
32043.9     42.680  -155.497
32510.0     42.434  -155.811
32982.8     42.188  -156.120
33462.6     41.942  -156.425
33949.3     41.696  -156.725
34443.1     41.450  -157.021
34944.1     41.204  -157.312
35452.4     40.958  -157.599
35968.0     40.712  -157.882
36491.2     40.466  -158.161
37022.0     40.220  -158.436
37560.5     39.974  -158.712
38106.8     39.732  -158.963
38661.1     39.499  -159.201
39223.4     39.322  -159.383
39793.9     39.200  -159.526
